50
0.12745    275 255 0.0596422
0.558693   303 246 0.096368
0.471243   289 288 0.195981
0.464488   267 264 0.189334
0.190921   327 274 0.0990241
0.459237   300 218 0.261647
0.803977   280 248 0.386656
0.558473   294 247 0.448527
0.459279   270 247 0.281511
0.443859   301 269 0.386813
0.19296    224 174 0.164149
0.141215   230 304 0.157048
0.42565    279 281 0.281544
0.12261    309 312 0.101817
0.119345   281 215 0.0961973
0.181428   260 300 0.227986
0.467916   272 271 0.3888
0.428214   269 256 0.286749
-0.337468  300 254 0.208054
-0.219475  305 233 0.172865
0.205691   247 184 0.330072
0.0599005  197 287 0.108214
0.19479    301 277 0.259972
0.123824   327 261 0.146124
0.373016   292 290 0.468545
0.197388   287 228 0.385045
-0.177953  313 243 0.275777
0.161804   236 317 0.327183
0.145562   328 293 0.294338
0.0868282  273 291 0.128442
0.204831   271 241 0.339509
0.124063   304 289 0.258817
0.064168   256 214 0.17371
0.130758   221 296 0.284619
-0.0727387 316 322 0.171673
0.11911    246 300 0.34226
0.106738   290 272 0.326055
0.11673    310 269 0.349468
0.125218   310 251 0.385389
0.116823   249 190 0.379548
0.0927647  254 249 0.347317
-0.10029   299 237 0.343895
0.0728987  268 281 0.359205
-0.0569991 276 232 0.1703
0.0502819  325 301 0.35783
-0.0570511 274 253 0.359377
0.0362544  278 328 0.176085
-0.047639  324 283 0.3601
0.0288857  327 247 0.36039
0.0427827  283 272 0.361363


40
  0.50 275.00 255.0  0.068
  0.30 310.00 250.0  0.229
  0.42 288.00 290.0  0.230
  0.11 328.00 277.0  0.098
  0.21 293.00 217.0  0.100
  0.12 230.00 304.0  0.155
  0.19 225.00 174.0  0.164
  0.13 310.00 311.0  0.192
  0.23 270.00 281.0  0.046
  0.33 295.00 241.0  0.134
  0.13 303.00 278.0  0.069
  0.06 266.00 211.0  0.091
 -0.56 287.00 261.0  0.097
  0.07 198.00 288.0  0.147
 -0.14 251.00 278.0  0.071
  0.16 332.00 262.0  0.104
  0.18 248.00 185.0  0.267
 -0.15 281.00 301.0  0.108
  0.24 296.00 255.0  0.083
  0.02 290.00 323.0  0.104
  0.07 329.00 301.0  0.132
 -0.14 275.00 234.0  0.188
 -0.13 254.00 247.0  0.087
 -0.08 295.00 201.0  0.113
 -0.08 345.00 258.0  0.101
 -0.06 262.00 317.0  0.126
 -0.19 291.00 232.0  0.115
 -0.10 311.00 287.0  0.103
  0.08 323.00 239.0  0.128
  0.02 178.00 275.0  0.082
 -0.03 341.00 300.0  0.126
  0.07 219.00 296.0  0.171
 -0.02 322.00 220.0  0.088
 -0.14 262.00 282.0  0.139
  0.07 243.00 241.0  0.144
  0.03 359.00 254.0  0.110
  0.22 267.00 264.0  0.209
  0.25 301.00 219.0  0.273
  0.03 291.00 191.0  0.104
 -0.06 258.00 265.0  0.108
  0.21 281.00 248.0  0.367


20
0.452433 275 255 0.0809403
0.363584 310 250 0.0978415
0.489091 287 289 0.145682
0.186929 327 277 0.0791689
0.225133 293 219 0.137214
0.132461 229 303 0.160123
0.342217 295 241 0.155881
0.237103 267 273 0.130048
0.0866264 270 213 0.140377
0.171973 225 174 0.211953
0.125158 308 312 0.178062
0.175519 302 276 0.131538
0.125896 259 300 0.174784
0.0615517 265 249 0.117673
-0.0380777 201 289 0.00748272
0.0229255 201 289 0.108713
-0.0275712 308 258 0.0898912
0.0188529 198 288 0.0902483
0.0542126 247 185 0.0925641
-0.025291 285 262 0.0911098
