100
0.0952893 275 255 0.0608819
0.569059 303 246 0.102686
0.488446 289 288 0.213945
0.373348 267 264 0.188245
0.174328 327 274 0.103179
0.478763 300 218 0.272741
0.823079 280 248 0.393727
0.566939 294 247 0.459459
0.440019 270 247 0.262682
0.468817 301 269 0.403031
0.191433 224 174 0.160211
0.121443 230 304 0.178982
0.410854 279 281 0.305889
0.157274 309 312 0.155929
0.166955 281 215 0.119223
0.203147 260 300 0.253772
0.422596 272 271 0.374054
0.47325 269 256 0.25691
-0.285544 300 254 0.241987
-0.181696 305 233 0.171976
0.208647 247 184 0.377294
0.0699053 197 287 0.118111
0.210243 301 277 0.311
0.157793 327 261 0.173905
0.403871 292 290 0.513287
0.222323 287 228 0.358385
-0.15558 313 243 0.225006
0.156224 236 317 0.322688
0.122428 328 293 0.307373
0.0998756 273 291 0.119973
0.210458 271 241 0.286726
0.111361 304 289 0.15618
0.0739052 256 214 0.173261
0.12336 221 296 0.238651
-0.0251488 316 322 0.19762
0.120137 246 300 0.333788
0.105892 290 272 0.291267
0.151354 310 269 0.319352
0.190958 310 251 0.445236
0.173555 249 190 0.452031
0.108273 254 249 0.327154
-0.0969812 299 237 0.294869
0.108473 268 281 0.354895
-0.0322228 276 232 0.144539
0.105735 325 301 0.286709
-0.140694 274 253 0.388523
0.0328467 278 328 0.170717
-0.0818464 324 283 0.373577
0.098271 327 247 0.256242
0.127364 283 272 0.394488
0.153634 285 259 0.335166
0.172819 285 248 0.423114
0.0854038 170 287 0.398474
0.103855 296 303 0.332084
-0.152239 305 253 0.374773
0.234202 270 268 0.419777
0.0935587 223 306 0.356771
-0.0749658 292 259 0.351077
0.09327 338 274 0.35678
0.143739 283 281 0.366086
0.0470123 268 196 0.190743
-0.120777 283 213 0.339958
0.132477 289 238 0.397304
0.0949677 319 238 0.302108
0.134672 314 255 0.423445
0.120381 259 264 0.360344
0.0946984 320 275 0.353291
0.095024 300 225 0.327278
0.0691031 254 299 0.363722
-0.0740067 262 296 0.361963
0.0589982 254 323 0.363116
0.066077 244 244 0.34925
0.0555203 220 285 0.360244
0.0749398 231 312 0.351376
-0.0535227 308 304 0.353605
0.0406607 293 323 0.16218
0.0700242 317 307 0.354584
0.0708168 259 256 0.358754
-0.0587016 206 284 0.345377
0.0811393 303 265 0.363461
0.166391 269 261 0.711428
0.0842395 326 266 0.377182
0.075542 328 288 0.367966
-0.141455 279 246 0.716473
0.0767759 279 251 0.372724
0.0625968 337 266 0.367545
0.0651815 295 275 0.360828
0.0600125 245 180 0.37017
0.0499921 292 210 0.360265
-0.0589025 313 318 0.358648
0.052702 281 291 0.356019
0.0431401 253 291 0.360629
-0.0542093 331 263 0.364582
-0.0370798 219 184 0.359598
0.0284266 260 233 0.183117
0.0216769 202 294 0.360729
0.033413 307 247 0.361959
0.0362056 291 232 0.36209
0.0145147 310 279 0.360959
0.0173293 302 319 0.361152
